Wind Speed (m/s),Turbine Output
3,0.38
3.5,1.24
4,2.28
4.5,3.66
5,5.49
5.5,7.44
6,9.87
6.5,12.71
7,15.55
7.5,18.44
8,21.05
8.5,23.08
9,24.95
9.5,26.44
10,27.64
10.5,28.46
11,28.89
11.5,29.16
12,29.19
12.5,28.91
13,28.77
13.5,27.74
14,26.88
14.5,25.17
15,24.3
15.5,23.48
16,22
16.5,20.53
17,20.2
17.5,19.64
18,19.64
18.5,19.64
19,19.64
19.5,19.64
20,19.64
